t,Potential,Kinetic,Total,Virial
0,-4494.91,52214,47718.3,98487.5
5,-4236.12,52007.6,47771.4,105766
10,-3417.08,51249,47832,128633
15,-1914.99,49823.2,47908.1,170012
20,438.154,47562.6,48000.8,233802
25,3720.09,44369.5,48089.5,321432
30,7601.64,40514,48115.8,424016
35,11080.5,36936.8,48017.3,515940
40,13008,34823.1,47831,568165
45,13134.4,34537.1,47671.5,574262
50,12121,35475.6,47596.6,550758
55,10789,36806.4,47595.4,518446
60,9714.88,37923.5,47638.4,492118
65,9167.74,38526.1,47693.8,478802
70,9087.72,38642.1,47729.8,477175
75,9195.57,38540.1,47735.5,480331
80,9272.48,38456.8,47729.3,482789
85,9311.63,38417.7,47729.4,484314
90,9397.92,38339.1,47737,486968
95,9551.4,38189.9,47741.4,491220
100,9691.88,38043.7,47735.6,495045
105,9734.76,37989,47723.6,496312
110,9651.93,38059.4,47711.3,494304
115,9467.23,38236.4,47703.7,489629
120,9252.83,38452,47704.8,484124
125,9096.38,38617.1,47713.5,480019
130,9038.21,38685,47723.2,478364
135,9052.49,38675.5,47727.9,478545
140,9089.26,38639.8,47729.1,479325
145,9131.45,38597.5,47728.9,480271
150,9152.92,38572.7,47725.7,480733
155,9154.11,38571.6,47725.7,480721
160,9185.84,38544.6,47730.4,481492
165,9253.73,38478.4,47732.1,483178
170,9313.01,38417.1,47730.1,484667
175,9367.05,38364.9,47731.9,486034
180,9456.86,38278.2,47735,488276
185,9519.1,38207.9,47727,489817
190,9479.4,38238.7,47718,488826
195,9408.88,38311.4,47720.1,487074
200,9415.7,38315.6,47731.2,487252
205,9518.58,38219.2,47737.8,489819
210,9625.95,38107.3,47733.2,492490
215,9654.52,38070.8,47725.2,493180
220,9647.43,38077.7,47725.2,492938
225,9632.48,38089.2,47721.7,492449
230,9547.08,38166.2,47713.2,490192
235,9413.47,38299.4,47712.9,486744
240,9330.58,38390.6,47721.2,484577
245,9330,38397.9,47728,484496
250,9374.88,38356.8,47731.6,485602
255,9467.18,38270.1,47737.3,487928
260,9600.17,38138.7,47738.9,491273
265,9701.4,38030.8,47732.3,493809
270,9715.02,38007.6,47722.7,494118
275,9630.91,38081.9,47712.9,491941
280,9474.33,38235,47709.3,487941
285,9359.69,38359.9,47719.7,484985
290,9356.72,38371,47727.8,484828
295,9363.45,38361,47724.5,484962
300,9351.63,38373.7,47725.3,484676
305,9356.19,38369.1,47725.3,484804
310,9318.73,38399.7,47718.5,483898
315,9231.66,38485.4,47717,481780
320,9192.72,38533.4,47726.1,480879
325,9256.9,38479.3,47736.3,482579
330,9416.52,38329.6,47746.1,486686
335,9660.63,38091,47751.6,492888
340,9862.59,37875.6,47738.1,497996
345,9870.05,37848.9,47718.8,498205
350,9757.83,37954.6,47712.4,495354
355,9614.79,38096.6,47711.4,491672
360,9484.12,38229.6,47713.8,488277
365,9383.49,38334.2,47717.6,485644
370,9342.68,38381.9,47724.5,484531
375,9344.18,38381.4,47725.6,484512
380,9339.31,38385.5,47724.8,484376
385,9327.17,38396.9,47724,484084
390,9325.78,38401.4,47727.1,484070
395,9354.41,38374,47728.3,484798
400,9366,38359.4,47725.4,485102
405,9356.26,38367.4,47723.7,484871
410,9318.39,38401.7,47720.3,483939
415,9271.55,38451.6,47723.1,482795
420,9300.73,38431.7,47732.4,483539
425,9368.1,38361.9,47729.9,485226
430,9358.55,38363.6,47722.1,485018
435,9345.63,38382.3,47728,484719
440,9401.55,38331.6,47733.1,486110
445,9474.46,38258.3,47732.7,487914
450,9533.01,38197.2,47730.2,489335
455,9527.64,38193.2,47720.9,489139
460,9453.94,38264.5,47718.6,487229
465,9397.12,38323.6,47720.7,485717
470,9334.92,38384.2,47719.1,484082
475,9274.37,38445.8,47720.2,482510
480,9230.06,38492.1,47722.2,481366
485,9212.21,38513,47725.3,480901
490,9219.29,38506.6,47725.9,481069
495,9190.1,38529.8,47719.8,480355
500,9134.61,38587.5,47722,479014
505,9153.8,38577.6,47731.4,479544
510,9220.83,38509.9,47730.7,481264
515,9222.56,38498.5,47721,481352
520,9130.84,38582.7,47713.6,479086
525,9008.92,38705.5,47714.5,476046
530,8954.02,38771.8,47725.9,474681
535,9036.6,38702.3,47738.9,476757
540,9188.97,38551.3,47740.3,480603
545,9308.54,38426.4,47734.9,483657
550,9373.07,38356.5,47729.6,485334
555,9370.07,38351.2,47721.3,485303
560,9277.04,38435.9,47712.9,483012
565,9136.25,38575.4,47711.7,479540
570,9053.11,38670.8,47723.9,477550
575,9155.24,38590.1,47745.4,480220
580,9418.79,38334.7,47753.5,486933
585,9635.44,38105.7,47741.1,492492
590,9722.98,38006.8,47729.7,494796
595,9696.99,38020.3,47717.2,494198
600,9562,38148.4,47710.4,490838
605,9439.69,38277.6,47717.3,487749
610,9400.6,38323.4,47724,486706
615,9379.39,38342.7,47722.2,486119
620,9340.68,38381.7,47722.4,485119
625,9341.72,38386.8,47728.5,485116
630,9379.8,38349.2,47729,486028
635,9390.68,38334.1,47724.8,486262
640,9361.83,38359.8,47721.6,485504
645,9332.88,38391.9,47724.8,484755
650,9339.49,38386.7,47726.2,484906
655,9318.22,38403,47721.2,484403
660,9276.18,38446.8,47723,483421
665,9293.78,38437,47730.8,483939
670,9369.39,38364.6,47734,485907
675,9459.83,38275,47735,488232
680,9527.8,38201.6,47729.4,489966
685,9550.73,38177.7,47728.5,490547
690,9598.8,38132.5,47731.2,491702
695,9632.76,38093.5,47726.2,492476
700,9617.07,38106.6,47723.5,492004
705,9600.12,38123.7,47723.8,491487
710,9562.29,38157.9,47720.2,490452
715,9492.58,38225.3,47717.9,488632
720,9410.57,38306.3,47716.9,486508
725,9317.76,38398.5,47716.2,484134
730,9244.18,38476.1,47720.4,482271
735,9225.29,38501.1,47726.3,481798
740,9272.5,38460.7,47733.2,482985
745,9357.34,38375.5,47732.8,485096
750,9375.33,38347,47722.4,485524
755,9305.4,38412,47717.5,483748
760,9236.38,38483.1,47719.5,481980
765,9186.16,38535.9,47722.2,480720
770,9209.95,38523.7,47733.7,481362
775,9362.36,38383.2,47745.6,485249
780,9570.77,38173.8,47744.6,490546
785,9684.93,38045.7,47730.7,493494
790,9679.58,38042.4,47722,493437
795,9606.49,38108.8,47715.4,491651
800,9486.74,38227.6,47714.4,488697
805,9421.92,38301.8,47723.8,487108
810,9454.15,38278.7,47732.8,487938
815,9551.83,38183.8,47735.7,490377
820,9599.97,38125.2,47725.1,491555
825,9537.52,38178.5,47716,489947
830,9418.73,38294.1,47712.8,486892
835,9296.59,38418.1,47714.7,483732
840,9219.98,38501,47720.9,481704
845,9208.01,38518.4,47726.4,481305
850,9219.93,38506,47725.9,481534
855,9207.04,38516.3,47723.3,481190
860,9187.89,38536.3,47724.2,480720
865,9190.79,38537.1,47727.8,480825
870,9249.32,38485.2,47734.4,482323
875,9345.15,38389.2,47734.3,484738
880,9380.86,38343.1,47723.9,485634
885,9285.61,38425.5,47711,483270
890,9143.9,38571.1,47715.1,479770
895,9105.51,38621.5,47727,478869
900,9165.48,38569.2,47734.6,480471
905,9262.33,38472.2,47734.5,483033
910,9326.72,38403.5,47730.1,484810
915,9367.5,38362.9,47730.4,485996
920,9449.69,38286.9,47736.6,488183
925,9562.52,38172.8,47735.3,491094
930,9629.15,38101.2,47730.3,492829
935,9661.61,38066.1,47727.7,493678
940,9662.75,38061.9,47724.7,493730
945,9666.87,38061.3,47728.1,493842
950,9704.98,38024,47729,494773
955,9701.05,38020.5,47721.6,494642
960,9626.37,38089.6,47715.9,492730
965,9520.76,38194.2,47714.9,490033
970,9436.94,38283,47719.9,487872
975,9418.89,38307.5,47726.4,487341
980,9435.43,38291.4,47726.8,487666
985,9425.63,38297.3,47722.9,487342
990,9391.19,38331.4,47722.6,486416
995,9386.69,38341.1,47727.9,486242
1000,9442.51,38290.8,47733.3,487564
1005,9518.12,38214.1,47732.2,489367
1010,9546.13,38178.3,47724.3,489964
1015,9472.39,38241.7,47714.2,488010
1020,9339.1,38373.1,47712.2,484560
1025,9230.77,38486.9,47717.8,481734
1030,9194.94,38530.3,47725.3,480742
1035,9217.97,38511.4,47729.4,481260
1040,9274.62,38458.8,47733.3,482663
1045,9381.55,38356.8,47738.3,485333
1050,9491.27,38242.2,47733.4,488064
1055,9509.87,38213.9,47723.8,488513
1060,9477.53,38244.5,47722.1,487654
1065,9430.82,38289.8,47720.6,486396
1070,9388.89,38333.6,47722.3,485229
1075,9358.57,38364.9,47723.4,484337
1080,9366.89,38362.7,47729.5,484380
1085,9369.47,38350,47719.4,484238
1090,9176.32,38521,47697.4,479247
1095,8863.73,38833.6,47697.3,471341
1100,8694.33,39025.1,47719.4,467072
1105,8745.25,38993.2,47738.4,468386
1110,8924.13,38822.1,47746.2,472978
1115,9125.16,38618.9,47744,478164
1120,9261.53,38473.5,47735.2,481737
1125,9298.82,38426.2,47724.9,482819
1130,9253.46,38466,47719.5,481831
1135,9222.89,38504.7,47727.5,481226
1140,9340.47,38405.1,47745.5,484309
1145,9571.47,38176,47747.7,490186
1150,9682.36,38044.5,47726.9,493037
1155,9583.92,38125.8,47709.6,490617
1160,9406.83,38302,47708.8,486170
1165,9249.3,38462,47711.3,482182
1170,9162.68,38562.2,47724.7,480001
1175,9279.33,38467.4,47746.9,482914
1180,9508.4,38237.6,47746.1,488654
1185,9626.4,38105.2,47731.6,491654
1190,9614.71,38104.1,47718.7,491383
1195,9465.16,38240.7,47705.9,487635
1200,9259.93,38447.5,47707.4,482470
1205,9141.7,38578.3,47720,479448
1210,9153.71,38577.6,47731.3,479658
1215,9222.7,38508.8,47731.5,481280
1220,9232.24,38489.7,47721.9,481414
1225,9149.42,38565.3,47714.7,479233
1230,9033.84,38680.2,47714,476227
1235,8936.05,38782.1,47718.2,473684
1240,8910.67,38816.3,47726.9,472988
1245,8958.28,38774.1,47732.3,474173
1250,9046.75,38690,47736.7,476441
1255,9188.8,38552.8,47741.6,480068
1260,9327.82,38409.1,47736.9,483618
1265,9410.5,38322.3,47732.9,485746
1270,9478.54,38253.8,47732.4,487449
1275,9495.12,38226.6,47721.7,487789
1280,9360.96,38344.8,47705.8,484320
1285,9133.95,38569.6,47703.5,478510
1290,8958.5,38754.6,47713.1,473995
1295,8919.06,38809.9,47728.9,472907
1300,9006.64,38729.4,47736.1,475018
1305,9073.62,38654.3,47727.9,476659
1310,9051.09,38669.8,47720.9,476102
1315,9013.77,38710.6,47724.3,475194
1320,9037.59,38693,47730.6,475825
1325,9109.85,38624.8,47734.7,477688
1330,9216.31,38520.4,47736.6,480410
1335,9287.21,38440.8,47727.9,482237
1340,9245.86,38471.7,47717.5,481258
1345,9151.37,38564.9,47716.3,478937
1350,9069.07,38649.7,47718.8,476919
1355,9029.21,38695.3,47724.5,475990
1360,9059.02,38672.9,47731.9,476837
1365,9144.36,38590.9,47735.2,479109
1370,9240.21,38495.1,47735.3,481675
1375,9341.74,38394.7,47736.4,484382
1380,9452.79,38283.7,47736.5,487289
1385,9519.3,38208,47727.4,489035
1390,9467.47,38249.2,47716.7,487804
1395,9379.29,38339.3,47718.7,485643
1400,9339.06,38385.3,47724.3,484667
1405,9331.96,38392.8,47724.8,484528
1410,9306.5,38416.3,47722.7,483956
1415,9292.37,38433.9,47726.3,483657
1420,9294.26,38429.1,47723.3,483728
1425,9205.07,38508.3,47713.4,481535
1430,9092.53,38623.8,47716.4,478760
1435,9035.54,38687.5,47723,477380
1440,9056.94,38674.8,47731.7,477983
1445,9165.18,38574.5,47739.6,480778
1450,9327.92,38415,47743,484948
1455,9497.73,38244.3,47742,489290
1460,9636.83,38100.2,47737.1,492839
1465,9692.71,38034.3,47727,494279
1470,9662.34,38058.1,47720.4,493532
1475,9600.09,38120.1,47720.2,491950
1480,9549.76,38170.6,47720.4,490616
1485,9462.38,38252,47714.3,488328
1490,9340.2,38374.3,47714.5,485139
1495,9264.2,38457.4,47721.7,483054
1500,9235.91,38485.8,47721.6,482115
1505,9153.14,38562.6,47715.7,479831
1510,9080.3,38641.9,47722.3,477819
1515,9100.07,38631.8,47731.8,478148
1520,9181.03,38553.1,47734,480047
1525,9235.4,38492.3,47727.8,481326
1530,9197.65,38519.9,47717.6,480343
1535,9088.06,38625.8,47713.8,477598
1540,8991.87,38726.9,47718.8,475218
1545,8979.46,38750.2,47729.6,474969
1550,9081.39,38658.3,47739.6,477618
1555,9225.52,38513.8,47739.4,481373
1560,9355.2,38384.4,47739.5,484809
1565,9520.57,38223.7,47744.3,489111
1570,9675.97,38060.9,47736.9,493102
1575,9703.43,38019,47722.3,493834
1580,9609.85,38103.2,47713,491481
1585,9469.62,38243.2,47712.8,487921
1590,9377.77,38343,47720.9,485544
1595,9366.53,38360.9,47727.4,485165
1600,9368.05,38356.2,47724.2,485110
1605,9329.56,38392.8,47722.3,484077
1610,9320.78,38407.2,47727.9,483774
1615,9347.48,38380.5,47728,484349
1620,9344.93,38380.2,47725.2,484208
1625,9345.3,38381.3,47726.6,484122
1630,9325.81,38394.9,47720.7,483522
1635,9231.58,38482.7,47714.2,481056
1640,9122.12,38594.6,47716.8,478210
1645,9068.89,38655.2,47724.1,476776
1650,9096.58,38635.2,47731.7,477378
1655,9148.99,38580,47728.9,478623
1660,9136.68,38584.9,47721.6,478284
1665,9084.14,38636.9,47721.1,476958
1670,9059.6,38666.3,47726,476338
1675,9103.41,38630.5,47733.9,477426
1680,9204.28,38531.6,47735.7,479937
1685,9261.84,38465.8,47727.5,481376
1690,9242.78,38479.4,47722.3,480908
1695,9197.08,38523.4,47720.4,479768
1700,9126.32,38591.9,47718.2,478024
1705,9079.93,38644.9,47724.7,476919
1710,9113.42,38618.5,47732,477828
1715,9189.55,38544.5,47734,479829
1720,9272.25,38461.1,47733.4,482004
1725,9326.73,38402.3,47729,483471
1730,9339.73,38386.5,47726.2,483900
1735,9358.92,38370.8,47729.8,484473
1740,9421.9,38311.3,47733.2,486117
1745,9475.65,38253.1,47728.8,487516
1750,9462.37,38259.4,47721.8,487229
1755,9399.93,38319.4,47719.4,485694
1760,9342.07,38379.3,47721.4,484241
1765,9294.97,38426.6,47721.6,483042
1770,9259.27,38464.1,47723.5,482114
1775,9223.23,38497.6,47720.9,481164
1780,9150.74,38567,47717.7,479311
1785,9092.84,38631.2,47723.9,477821
1790,9133.25,38600.8,47734.1,478760
1795,9207.39,38523.1,47730.5,480532
1800,9192.34,38527.8,47720.1,480091
1805,9104.1,38611.9,47715.9,477829
1810,9018.59,38701.1,47719.6,475636
1815,8988.89,38736.7,47725.6,474846
1820,9002.05,38725.4,47727.6,475143
1825,8991.92,38731.3,47723.3,474898
1830,8994.86,38735.8,47730.6,475011
1835,9098.85,38640.8,47739.7,477633
1840,9228.17,38508,47736.1,480874
1845,9267.45,38457.2,47724.7,481857
1850,9219.3,38500.6,47719.9,480628
1855,9155.02,38564.3,47719.4,478955
1860,9096.06,38625,47721,477400
1865,9048.59,38672.6,47721.2,476140
1870,9013.16,38710.6,47723.8,475204
1875,9005.88,38719.8,47725.7,474995
1880,8996.19,38728,47724.2,474763
1885,8994.32,38733.5,47727.8,474765
1890,9036.73,38694.8,47731.5,475890
1895,9101.12,38631.7,47732.8,477572
1900,9156.88,38573.1,47730,479027
1905,9173.39,38552.7,47726.1,479482
1910,9150.15,38571.1,47721.2,478908
1915,9055.12,38657.6,47712.8,476534
1920,8919.67,38794.7,47714.3,473176
1925,8846.26,38875.7,47721.9,471406
1930,8850.81,38879.6,47730.5,471655
1935,8954.01,38786.4,47740.4,474429
1940,9134.14,38611.7,47745.8,479157
1945,9333.38,38411.4,47744.8,484349
1950,9485.94,38251.7,47737.7,488318
1955,9556.55,38173.4,47730,490151
1960,9567.17,38157.5,47724.7,490370
1965,9502.54,38212.8,47715.4,488620
1970,9368.98,38342.7,47711.8,485089
1975,9234.79,38478.9,47713.7,481503
1980,9122.42,38592.5,47714.9,478456
1985,9019.74,38696.8,47716.5,475688
1990,8938.33,38780.4,47718.7,473509
1995,8894.06,38829.9,47724,472329
2000,8908.76,38821,47729.8,472692
2005,8977.77,38757.4,47735,474469
2010,9073.29,38661.4,47734.6,476938
2015,9138.09,38593.2,47731.4,478657
2020,9188.34,38542.1,47730.4,479998
2025,9209.32,38516.7,47726.1,480591
2030,9205,38521.4,47726.4,480543
2035,9243.66,38489.2,47732.9,481545
2040,9333.35,38402.3,47735.6,483799
2045,9403.27,38326.6,47729.9,485559
2050,9416.24,38312.1,47728.3,485911
2055,9483.93,38251.8,47735.7,487593
2060,9550.75,38177.8,47728.5,489221
2065,9495.68,38219.5,47715.2,487802
2070,9360.77,38351.5,47712.1,484369
2075,9224.25,38488.1,47712.3,480872
2080,9082.01,38629.5,47711.5,477237
2085,8945.42,38768.1,47713.4,473758
2090,8848.73,38870.1,47718.9,471297
2095,8814.29,38911,47725.3,470424
2100,8849.38,38883.8,47733.2,471332
2105,8979.23,38764.5,47743.8,474645
2110,9177.74,38567.3,47744.9,479688
2115,9302.34,38432.3,47734.6,482917
2120,9373.74,38358.6,47732.3,484797
2125,9408.25,38319.7,47728,485723
2130,9432.22,38297.8,47730,486347
2135,9479.17,38251.1,47730.3,487487
2140,9476.76,38244.5,47721.2,487362
2145,9372.77,38339.6,47712.4,484682
2150,9230.18,38482.5,47712.7,481028
2155,9123.08,38594.7,47717.8,478266
2160,9074.22,38649.5,47723.8,476985
2165,9066.14,38659,47725.1,476757
2170,9041.17,38681,47722.1,476154
2175,9001.95,38720.8,47722.7,475236
2180,8991.75,38735,47726.7,475068
2185,9019.26,38710.4,47729.7,475861
2190,9065.1,38666.1,47731.3,477127
2195,9133.9,38599.9,47733.8,478959
2200,9213.18,38520.2,47733.5,481027
2205,9254.33,38472.2,47726.6,482121
2210,9235.8,38488.3,47724.1,481721
2215,9235.89,38491.2,47727.1,481758
2220,9231.03,38492.3,47723.3,481655
2225,9175.4,38543.1,47718.5,480277
2230,9082.22,38633.1,47715.2,477952
2235,8977.51,38739.5,47717,475345
2240,8940.97,38785.8,47726.8,474442
2245,8987.27,38745,47732.2,475609
2250,9043.82,38685.9,47729.6,477036
2255,9042.87,38680,47723,477040
2260,9015.51,38709.9,47725.4,476402
2265,9064.59,38670.4,47734.9,477668
2270,9174.46,38562.9,47737.3,480458
2275,9281.09,38455.3,47736.4,483186
2280,9386.22,38350.5,47736.6,485871
2285,9469.56,38262.3,47731.8,487997
2290,9487.25,38237.4,47724.7,488466
2295,9442.76,38277.5,47720.3,487360
2300,9390.74,38331.6,47722.3,486042
2305,9384.79,38343.5,47728.4,485849
2310,9415.94,38312.5,47728.6,486555
2315,9410.64,38312.4,47723.1,486342
2320,9369.83,38352.5,47722.3,485239
2325,9353.33,38372.5,47725.8,484733
2330,9354.82,38371.1,47726,484678
2335,9341.25,38382,47723.2,484266
2340,9296.73,38423.9,47720.8,483097
2345,9247.27,38475,47722.2,481825
2350,9246.97,38482.7,47729.6,481787
2355,9304.16,38427.3,47731.4,483171
2360,9310.17,38412.2,47722.4,483272
2365,9228.93,38485.6,47714.5,481181
2370,9068.36,38639.5,47707.9,477111
2375,8925.25,38791.7,47717,473491
2380,8913.79,38817,47730.8,473176
2385,9015.86,38723.3,47739.1,475723
2390,9141.74,38594.7,47736.5,478892
2395,9217.83,38514,47731.8,480837
2400,9274.82,38456.7,47731.5,482296
2405,9310.49,38416.6,47727.1,483218
2410,9297.85,38426.6,47724.3,482946
2415,9306.97,38422.7,47729.7,483213
2420,9355.69,38375.1,47730.7,484450
2425,9372.01,38352.9,47724.9,484875
2430,9327.37,38392.6,47720,483782
2435,9278.34,38445.9,47724.2,482589
2440,9316.36,38418.3,47734.7,483565
2445,9425.85,38311.1,47737,486311
2450,9471.07,38252.9,47724,487446
2455,9380.15,38333.7,47713.9,485191
2460,9273.75,38444.1,47717.9,482527
2465,9225.54,38498.8,47724.3,481303
2470,9248.12,38483,47731.2,481840
2475,9302.13,38428.6,47730.8,483158
2480,9324.33,38401.8,47726.1,483685
2485,9299.91,38422.3,47722.2,483050
2490,9248.09,38472.4,47720.4,481731
2495,9191.84,38529,47720.8,480309
2500,9144.05,38577.4,47721.5,479103
2505,9085.52,38633.2,47718.7,477639
2510,9001.96,38715.7,47717.6,475571
2515,8944.82,38778.9,47723.6,474189
2520,8972.59,38759.8,47732.4,474953
2525,9062.93,38673.8,47736.7,477310
2530,9176.46,38561,47737.4,480263
2535,9284.02,38452.8,47736.8,483064
2540,9374.83,38358,47732.7,485416
2545,9378.4,38343.3,47721.7,485577
2550,9311.35,38408.4,47719.7,483973
2555,9283.59,38443.9,47727.3,483343
2560,9342.8,38392.4,47735.2,484888
2565,9437.17,38298.1,47735.3,487317
2570,9513.77,38218.6,47732.5,489273
2575,9531.61,38191.3,47722.9,489687
2580,9401.89,38303.2,47705.2,486356
2585,9151.07,38550.5,47701.7,479969
2590,8975.5,38738.6,47714.1,475428
2595,8895.75,38824.7,47720.5,473310
2600,8885.46,38844.1,47729.5,473004
2605,8971.13,38766.4,47737.4,475159
2610,9087.41,38650,47737.4,478147
2615,9192.29,38543.8,47736.1,480897
2620,9282.71,38452.1,47734.7,483304
2625,9375.59,38361.2,47736.8,485766
2630,9485.15,38251,47736.1,488617
2635,9541.88,38187.6,47729.5,490147
2640,9576.18,38155.5,47731.8,491108
2645,9676.37,38064.1,47740.6,493672
2650,9823.01,37916.4,47739.3,497330
2655,9881.65,37843.8,47725.5,498725
2660,9788.41,37922.9,47711.4,496250
2665,9603.18,38103.3,47706.5,491398
2670,9392.16,38311.4,47703.6,485847
2675,9146.95,38554.8,47701.8,479466
2680,8954.77,38758,47712.7,474467
2685,8900.22,38826.2,47726.5,472974
2690,8945.02,38787.9,47732.9,474043
2695,9022.04,38711.9,47733.9,475984
2700,9092.36,38640.1,47732.4,477803
2705,9143.43,38586.9,47730.3,479167
2710,9178.66,38551.1,47729.7,480145
2715,9220.6,38510.1,47730.7,481292
2720,9263.8,38467,47730.8,482484
2725,9315.17,38416.4,47731.5,483892
2730,9368.39,38364.1,47732.5,485367
2735,9463.21,38275.2,47738.4,487879
2740,9609.96,38132.3,47742.3,491653
2745,9761.12,37978.2,47739.4,495476
2750,9836.02,37892.7,47728.7,497315
2755,9794.59,37923.1,47717.7,496174
2760,9676.04,38037,47713,493041
2765,9531.14,38179.7,47710.8,489215
2770,9360.75,38347.5,47708.3,484759
2775,9185.36,38524.4,47709.8,480206
2780,9047.9,38667.4,47715.3,476643
2785,8989.95,38734.8,47724.8,475115
2790,9025.85,38707.4,47733.3,475979
2795,9122.9,38614.2,47737.1,478415
2800,9222.15,38512.8,47735.1,480947
2805,9306.8,38429.1,47735.8,483152
2810,9405.22,38330.1,47735.4,485712
2815,9453.21,38274.7,47728,487040
2820,9459.68,38268.7,47728.5,487352
2825,9521.8,38214.4,47736.3,489037
2830,9642.45,38096.8,47739.3,492151
2835,9736.3,37994.5,47730.7,494553
