t,Potential,Kinetic,Total
0,118732.226562,0.019828,118732.242188
5,118731.632812,0.713739,118732.296875
10,118729.953125,2.398523,118732.406250
15,118727.281250,5.073141,118732.531250
20,118723.734375,8.736016,118732.578125
25,118719.234375,13.385170,118732.726562
30,118713.781250,19.018248,118732.828125
35,118707.265625,25.632757,118732.804688
40,118699.742188,33.226059,118732.859375
45,118691.273438,41.795589,118733.046875
50,118681.804688,51.338356,118733.101562
55,118671.343750,61.852253,118733.273438
60,118659.914062,73.334221,118733.281250
65,118647.585938,85.782242,118733.273438
70,118634.570312,99.193848,118733.539062
75,118620.023438,113.566711,118733.789062
80,118604.820312,128.898193,118733.734375
85,118588.617188,145.186981,118733.882812
90,118571.578125,162.429642,118733.906250
95,118553.398438,180.625168,118734.140625
100,118534.203125,199.771072,118734.085938
105,118514.453125,219.864761,118734.265625
110,118493.476562,240.904419,118734.171875
115,118471.539062,262.888031,118734.414062
120,118448.562500,285.813049,118734.523438
125,118425.054688,309.677429,118734.546875
130,118400.187500,334.479156,118734.890625
135,118374.781250,360.215576,118734.875000
140,118348.218750,386.884338,118735.000000
145,118320.570312,414.483551,118734.828125
150,118292.000000,443.010651,118734.960938
155,118262.703125,472.462555,118735.179688
160,118232.578125,502.835846,118735.132812
165,118201.125000,534.131104,118735.304688
170,118169.148438,566.342102,118735.546875
175,118136.062500,599.469910,118735.539062
180,118102.085938,633.509033,118735.562500
185,118067.218750,668.455811,118735.601562
190,118031.367188,704.310669,118735.890625
195,117994.757812,741.069885,118736.015625
200,117957.273438,778.727905,118736.023438
205,117918.687500,817.283386,118735.953125
210,117879.523438,856.733643,118736.468750
215,117839.218750,897.076233,118736.367188
220,117798.007812,938.306824,118736.335938
225,117755.984375,980.421997,118736.398438
230,117713.015625,1023.418762,118736.539062
235,117669.257812,1067.293823,118736.617188
240,117624.820312,1112.042969,118736.609375
245,117579.132812,1157.666382,118736.789062
250,117532.609375,1204.153687,118736.953125
255,117485.375000,1251.509888,118737.000000
260,117437.398438,1299.724243,118736.914062
265,117388.187500,1348.796143,118737.187500
270,117338.476562,1398.721313,118737.070312
275,117287.843750,1449.496460,118737.390625
280,117236.132812,1501.119751,118737.406250
285,117183.867188,1553.580322,118737.406250
290,117130.851562,1606.883789,118737.500000
295,117076.531250,1661.018311,118737.640625
300,117021.812500,1715.985474,118737.718750
305,116966.031250,1771.774658,118737.804688
310,116909.601562,1828.385132,118738.101562
315,116852.312500,1885.818726,118738.054688
320,116794.078125,1944.062866,118738.007812
325,116734.898438,2003.115112,118738.085938
330,116675.250000,2062.974365,118738.273438
335,116614.398438,2123.635498,118738.429688
340,116553.437500,2185.089600,118738.312500
345,116490.976562,2247.335693,118738.460938
350,116428.226562,2310.373047,118738.570312
355,116364.484375,2374.185303,118738.750000
360,116299.828125,2438.785889,118738.523438
365,116234.562500,2504.156982,118738.820312
370,116168.476562,2570.297363,118739.007812
375,116101.796875,2637.199463,118738.992188
380,116033.976562,2704.862305,118739.007812
385,115965.679688,2773.279785,118739.171875
390,115896.796875,2842.447998,118739.210938
395,115826.812500,2912.372070,118739.187500
400,115756.242188,2983.020752,118739.398438
405,115684.859375,3054.411377,118739.093750
410,115612.945312,3126.544922,118739.335938
415,115540.218750,3199.385498,118739.539062
420,115466.554688,3272.956787,118739.460938
425,115392.273438,3347.239014,118739.703125
430,115317.500000,3422.239014,118739.562500
435,115241.843750,3497.942139,118739.710938
440,115165.492188,3574.344971,118739.835938
445,115088.453125,3651.440430,118740.054688
450,115010.843750,3729.238037,118739.921875
455,114932.242188,3807.717529,118740.164062
460,114853.210938,3886.876465,118740.281250
465,114773.351562,3966.712646,118740.039062
470,114693.085938,4047.216309,118740.476562
475,114611.945312,4128.379395,118740.390625
480,114530.335938,4210.208496,118740.359375
485,114447.625000,4292.688477,118740.515625
490,114364.828125,4375.815430,118740.640625
495,114280.898438,4459.597168,118740.648438
500,114196.695312,4544.013184,118740.750000
505,114111.968750,4629.051758,118740.726562
510,114025.937500,4714.738770,118740.828125
515,113939.617188,4801.032715,118740.812500
520,113852.859375,4887.947754,118740.835938
525,113765.382812,4975.472168,118740.828125
530,113677.406250,5063.612305,118741.015625
535,113588.765625,5152.333984,118740.929688
540,113499.523438,5241.671875,118741.250000
545,113409.617188,5331.586914,118741.093750
550,113319.101562,5422.097656,118741.406250
555,113228.023438,5513.174316,118741.445312
560,113136.531250,5604.840820,118741.398438
565,113044.343750,5697.072266,118741.320312
570,112951.648438,5789.850098,118741.640625
575,112858.429688,5883.188965,118741.539062
580,112764.570312,5977.094727,118741.710938
585,112670.093750,6071.533203,118741.703125
590,112575.234375,6166.518555,118741.640625
595,112479.734375,6262.040527,118741.601562
600,112383.796875,6358.084961,118741.789062
605,112287.140625,6454.663086,118741.812500
610,112190.031250,6551.749512,118741.914062
615,112092.695312,6649.335449,118741.859375
620,111994.476562,6747.466797,118742.031250
625,111895.953125,6846.080078,118742.109375
630,111797.046875,6945.191895,118742.164062
635,111697.429688,7044.797363,118742.210938
640,111597.265625,7144.887207,118742.257812
645,111496.781250,7245.446777,118742.296875
650,111395.773438,7346.496094,118742.296875
655,111294.351562,7448.002441,118742.250000
660,111192.367188,7549.982422,118742.320312
665,111090.195312,7652.417480,118742.171875
670,110987.445312,7755.296387,118742.468750
675,110883.945312,7858.634766,118742.414062
680,110780.296875,7962.411133,118742.468750
685,110675.968750,8066.617188,118742.632812
690,110571.421875,8171.264648,118742.609375
695,110466.437500,8276.325195,118742.687500
700,110360.765625,8381.819336,118742.687500
705,110254.945312,8487.707031,118742.757812
710,110148.687500,8594.024414,118742.890625
715,110042.242188,8700.741211,118742.851562
720,109935.070312,8807.866211,118742.976562
725,109827.546875,8915.384766,118742.898438
730,109719.859375,9023.257812,118743.000000
735,109611.539062,9131.542969,118743.007812
740,109502.867188,9240.208984,118742.859375
745,109393.968750,9349.215820,118743.015625
750,109284.625000,9458.616211,118743.335938
755,109174.812500,9568.379883,118743.187500
760,109064.742188,9678.478516,118743.375000
765,108954.281250,9788.958984,118743.257812
770,108843.507812,9899.747070,118743.265625
775,108732.328125,10010.891602,118743.226562
780,108621.046875,10122.379883,118743.437500
785,108509.210938,10234.189453,118743.460938
790,108397.000000,10346.321289,118743.226562
795,108284.601562,10458.793945,118743.296875
800,108172.109375,10571.539062,118743.468750
805,108059.054688,10684.609375,118743.523438
810,107945.554688,10798.025391,118743.570312
815,107831.773438,10911.684570,118743.531250
820,107718.132812,11025.644531,118743.679688
825,107603.882812,11139.938477,118743.703125
830,107489.070312,11254.469727,118743.562500
835,107374.281250,11369.324219,118743.437500
840,107259.414062,11484.412109,118743.773438
845,107144.117188,11599.787109,118743.570312
850,107028.335938,11715.397461,118743.710938
855,106912.507812,11831.309570,118743.695312
860,106796.242188,11947.453125,118743.625000
865,106679.960938,12063.850586,118743.835938
870,106563.328125,12180.495117,118743.968750
875,106446.578125,12297.382812,118743.843750
880,106329.375000,12414.503906,118744.039062
885,106212.187500,12531.851562,118743.789062
890,106094.515625,12649.435547,118743.835938
895,105976.695312,12767.227539,118743.953125
900,105858.843750,12885.246094,118744.179688
905,105740.632812,13003.467773,118743.976562
910,105622.179688,13121.884766,118743.898438
915,105503.695312,13240.540039,118743.914062
920,105384.765625,13359.371094,118743.984375
925,105265.593750,13478.389648,118744.164062
930,105146.343750,13597.582031,118744.125000
935,105027.226562,13716.997070,118744.046875
940,104907.648438,13836.587891,118743.875000
945,104787.757812,13956.331055,118744.320312
950,104667.859375,14076.274414,118744.179688
955,104547.867188,14196.362305,118744.195312
960,104427.429688,14316.623047,118744.171875
965,104307.187500,14437.031250,118744.234375
970,104186.773438,14557.601562,118744.203125
975,104066.070312,14678.298828,118744.164062
980,103945.281250,14799.182617,118744.289062
985,103824.273438,14920.159180,118744.257812
990,103702.906250,15041.317383,118744.273438
995,103581.640625,15162.588867,118744.343750
1000,103460.367188,15284.006836,118744.187500
1005,103338.656250,15405.523438,118744.296875
1010,103217.148438,15527.155273,118744.312500
1015,103095.296875,15648.942383,118744.367188
1020,102973.539062,15770.812500,118744.125000
1025,102851.695312,15892.768555,118744.570312
1030,102729.500000,16014.870117,118744.375000
1035,102607.429688,16137.052734,118744.554688
1040,102485.156250,16259.335938,118744.453125
1045,102362.781250,16381.711914,118744.484375
1050,102240.187500,16504.187500,118744.453125
1055,102117.812500,16626.757812,118744.445312
1060,101995.039062,16749.402344,118744.671875
1065,101872.546875,16872.082031,118744.289062
1070,101749.570312,16994.884766,118744.414062
1075,101626.523438,17117.714844,118744.632812
1080,101503.828125,17240.646484,118744.468750
1085,101380.953125,17363.636719,118744.515625
1090,101257.875000,17486.669922,118744.257812
1095,101134.601562,17609.789062,118744.585938
1100,101011.445312,17732.921875,118744.726562
1105,100888.367188,17856.128906,118744.507812
1110,100765.257812,17979.347656,118744.375000
1115,100641.976562,18102.687500,118744.625000
1120,100518.562500,18226.015625,118744.640625
1125,100395.273438,18349.363281,118744.414062
1130,100271.859375,18472.757812,118744.546875
1135,100148.320312,18596.175781,118744.515625
1140,100025.015625,18719.593750,118744.554688
1145,99901.609375,18843.097656,118744.390625
1150,99778.046875,18966.550781,118744.351562
1155,99654.500000,19090.072266,118744.492188
1160,99530.828125,19213.630859,118744.664062
1165,99407.343750,19337.125000,118744.625000
1170,99283.914062,19460.636719,118744.617188
1175,99160.382812,19584.162109,118744.375000
1180,99036.625000,19707.687500,118744.500000
1185,98913.257812,19831.224609,118744.367188
1190,98789.835938,19954.759766,118744.554688
1195,98666.320312,20078.291016,118744.453125
1200,98542.937500,20201.759766,118744.492188
1205,98419.273438,20325.251953,118744.648438
1210,98295.765625,20448.703125,118744.640625
1215,98172.203125,20572.162109,118744.476562
1220,98049.023438,20695.591797,118744.539062
1225,97925.546875,20818.986328,118744.468750
1230,97802.125000,20942.328125,118744.351562
1235,97678.742188,21065.687500,118744.460938
1240,97555.390625,21188.980469,118744.460938
1245,97432.210938,21312.265625,118744.585938
1250,97309.031250,21435.462891,118744.320312
1255,97186.015625,21558.636719,118744.507812
1260,97062.796875,21681.767578,118744.328125
1265,96939.679688,21804.853516,118744.601562
1270,96816.632812,21927.888672,118744.468750
1275,96693.562500,22050.921875,118744.164062
1280,96570.679688,22173.787109,118744.593750
1285,96447.710938,22296.652344,118744.265625
1290,96325.023438,22419.476562,118744.453125
1295,96202.085938,22542.208984,118744.242188
1300,96079.398438,22664.898438,118744.429688
1305,95956.929688,22787.521484,118744.484375
1310,95834.359375,22910.041016,118744.296875
1315,95711.789062,23032.490234,118744.601562
1320,95589.546875,23154.863281,118744.335938
1325,95467.304688,23277.173828,118744.390625
1330,95344.992188,23399.429688,118744.250000
1335,95222.781250,23521.583984,118744.125000
1340,95100.890625,23643.638672,118744.523438
1345,94978.796875,23765.673828,118744.390625
1350,94856.664062,23887.527344,118744.367188
1355,94734.992188,24009.347656,118744.507812
1360,94613.289062,24131.056641,118744.156250
1365,94491.703125,24252.691406,118744.187500
1370,94370.226562,24374.164062,118744.437500
1375,94248.703125,24495.632812,118744.359375
1380,94127.304688,24616.974609,118744.335938
1385,94006.226562,24738.183594,118744.257812
1390,93885.007812,24859.248047,118744.304688
1395,93763.968750,24980.310547,118744.164062
1400,93642.984375,25101.205078,118744.234375
1405,93522.281250,25222.005859,118744.265625
1410,93401.523438,25342.652344,118744.414062
1415,93280.929688,25463.289062,118744.328125
1420,93160.500000,25583.728516,118744.164062
1425,93040.257812,25704.103516,118744.351562
1430,92919.992188,25824.251953,118744.148438
1435,92799.882812,25944.332031,118744.210938
1440,92679.734375,26064.339844,118744.195312
1445,92559.992188,26184.212891,118744.109375
1450,92440.257812,26303.914062,118744.093750
1455,92320.539062,26423.529297,118744.109375
1460,92201.164062,26543.000000,118744.117188
1465,92081.953125,26662.324219,118744.226562
1470,91962.679688,26781.572266,118743.882812
1475,91843.476562,26900.613281,118744.367188
1480,91724.546875,27019.513672,118744.164062
1485,91605.687500,27138.345703,118744.023438
1490,91486.984375,27257.054688,118744.023438
1495,91368.414062,27375.521484,118744.078125
1500,91250.109375,27493.984375,118743.921875
1505,91131.718750,27612.130859,118744.023438
1510,91013.585938,27730.271484,118744.039062
1515,90895.781250,27848.255859,118743.945312
1520,90778.023438,27966.041016,118743.812500
1525,90660.187500,28083.640625,118744.007812
1530,90542.570312,28201.199219,118743.921875
1535,90425.390625,28318.533203,118743.843750
1540,90308.164062,28435.744141,118743.789062
1545,90191.203125,28552.781250,118743.656250
1550,90074.156250,28669.763672,118743.562500
1555,89957.453125,28786.478516,118743.734375
1560,89840.718750,28903.072266,118743.835938
1565,89724.507812,29019.494141,118743.828125
1570,89607.960938,29135.753906,118743.828125
1575,89491.875000,29251.945312,118743.757812
1580,89375.796875,29367.802734,118743.750000
1585,89260.140625,29483.615234,118743.906250
1590,89144.484375,29599.189453,118743.757812
1595,89028.929688,29714.650391,118743.757812
1600,88913.710938,29830.007812,118743.796875
1605,88798.609375,29945.134766,118743.648438
1610,88683.617188,30060.062500,118743.742188
1615,88568.851562,30174.878906,118743.578125
1620,88454.179688,30289.466797,118743.367188
1625,88339.796875,30403.947266,118743.742188
1630,88225.234375,30518.253906,118743.507812
1635,88111.132812,30632.318359,118743.664062
1640,87997.453125,30746.283203,118743.414062
1645,87883.609375,30860.091797,118743.523438
1650,87769.953125,30973.601562,118743.476562
1655,87656.523438,31087.029297,118743.531250
1660,87543.164062,31200.292969,118743.421875
1665,87430.132812,31313.349609,118743.242188
1670,87317.320312,31426.175781,118743.484375
1675,87204.468750,31538.904297,118743.453125
1680,87092.007812,31651.443359,118743.390625
1685,86979.679688,31763.794922,118743.351562
1690,86867.492188,31875.931641,118743.539062
1695,86755.406250,31987.875000,118743.484375
1700,86643.679688,32099.728516,118743.320312
1705,86532.046875,32211.308594,118743.328125
1710,86420.593750,32322.701172,118743.382812
1715,86309.234375,32433.990234,118743.203125
1720,86198.343750,32545.005859,118743.257812
1725,86087.351562,32655.837891,118743.328125
1730,85976.632812,32766.570312,118743.070312
1735,85866.265625,32877.039062,118743.156250
1740,85755.929688,32987.351562,118743.382812
1745,85645.890625,33097.492188,118743.132812
1750,85535.742188,33207.417969,118743.250000
1755,85425.851562,33317.085938,118743.203125
1760,85316.445312,33426.644531,118743.273438
1765,85206.960938,33536.058594,118743.070312
1770,85097.976562,33645.160156,118742.937500
1775,84988.914062,33754.207031,118743.007812
1780,84880.031250,33862.898438,118743.101562
1785,84771.476562,33971.472656,118742.960938
1790,84663.171875,34079.867188,118742.921875
1795,84554.859375,34188.058594,118743.078125
1800,84446.968750,34296.082031,118742.953125
1805,84339.085938,34403.875000,118742.843750
1810,84231.476562,34511.480469,118742.820312
1815,84123.929688,34618.871094,118743.031250
1820,84016.765625,34726.093750,118742.906250
1825,83909.632812,34833.179688,118742.968750
1830,83802.890625,34939.960938,118742.859375
1835,83696.218750,35046.566406,118742.898438
1840,83589.812500,35153.023438,118742.718750
1845,83483.468750,35259.218750,118742.843750
1850,83377.601562,35365.265625,118742.898438
1855,83271.609375,35471.136719,118742.625000
1860,83165.914062,35576.804688,118742.882812
1865,83060.531250,35682.207031,118742.671875
1870,82955.156250,35787.425781,118742.476562
1875,82850.132812,35892.519531,118742.742188
1880,82745.343750,35997.285156,118742.687500
1885,82640.710938,36101.992188,118742.531250
1890,82536.031250,36206.410156,118742.554688
1895,82432.007812,36310.550781,118742.648438
1900,82327.789062,36414.628906,118742.554688
1905,82224.156250,36518.414062,118742.460938
1910,82120.429688,36622.085938,118742.507812
1915,82017.007812,36725.511719,118742.453125
1920,81913.828125,36828.675781,118742.539062
1925,81810.601562,36931.699219,118742.257812
1930,81707.914062,37034.562500,118742.609375
1935,81605.296875,37137.132812,118742.359375
1940,81502.781250,37239.574219,118742.445312
1945,81400.640625,37341.781250,118742.328125
1950,81298.507812,37443.808594,118742.132812
1955,81196.734375,37545.574219,118742.335938
1960,81095.117188,37647.167969,118742.250000
1965,80993.703125,37748.562500,118742.375000
1970,80892.593750,37849.742188,118742.304688
1975,80791.500000,37950.746094,118742.171875
1980,80690.718750,38051.550781,118742.281250
1985,80590.039062,38152.128906,118742.382812
1990,80489.835938,38252.523438,118742.289062
1995,80389.382812,38352.695312,118742.218750
2000,80289.625000,38452.640625,118742.367188
2005,80189.828125,38552.398438,118742.187500
2010,80090.132812,38651.964844,118742.109375
2015,79990.703125,38751.320312,118742.218750
2020,79891.609375,38850.441406,118742.148438
2025,79792.617188,38949.398438,118742.140625
2030,79693.945312,39048.136719,118742.226562
2035,79595.164062,39146.652344,118742.078125
2040,79496.835938,39244.988281,118742.054688
2045,79398.835938,39343.136719,118742.031250
2050,79300.937500,39441.082031,118741.890625
2055,79203.078125,39538.789062,118741.625000
2060,79105.632812,39636.253906,118741.843750
2065,79008.281250,39733.613281,118741.734375
2070,78911.156250,39830.722656,118741.851562
2075,78814.367188,39927.570312,118741.882812
2080,78717.414062,40024.246094,118741.718750
2085,78621.046875,40120.808594,118741.921875
2090,78524.695312,40217.066406,118741.773438
2095,78428.679688,40313.136719,118741.835938
2100,78332.742188,40409.097656,118741.843750
2105,78237.101562,40504.683594,118741.750000
2110,78141.625000,40600.105469,118741.804688
2115,78046.203125,40695.457031,118741.687500
2120,77951.281250,40790.492188,118741.757812
2125,77856.281250,40885.378906,118741.515625
2130,77761.679688,40979.945312,118741.500000
2135,77667.078125,41074.476562,118741.554688
2140,77572.937500,41168.707031,118741.625000
2145,77478.843750,41262.757812,118741.679688
2150,77385.023438,41356.593750,118741.648438
2155,77291.328125,41450.207031,118741.656250
2160,77197.828125,41543.687500,118741.492188
2165,77104.625000,41636.875000,118741.453125
2170,77011.625000,41729.867188,118741.476562
2175,76918.664062,41822.812500,118741.468750
2180,76826.109375,41915.343750,118741.398438
2185,76733.539062,42007.839844,118741.593750
2190,76641.281250,42099.941406,118741.382812
2195,76549.390625,42192.062500,118741.421875
2200,76457.445312,42283.945312,118741.265625
2205,76365.960938,42375.527344,118741.250000
2210,76274.492188,42466.917969,118741.437500
2215,76183.218750,42558.050781,118741.234375
2220,76092.085938,42649.121094,118741.281250
2225,76001.343750,42740.019531,118741.203125
2230,75910.695312,42830.535156,118741.031250
2235,75820.351562,42920.937500,118741.148438
