t,Potential,Kinetic,Total
0,-4494.906738,52214.000000,47718.261719
5,-4236.121582,51902.593750,47666.359375
10,-3417.080566,51022.296875,47605.226562
15,-1914.990479,49443.261719,47528.316406
20,438.154449,46997.832031,47436.031250
25,3720.088379,43631.597656,47351.703125
30,7601.643066,39735.289062,47336.929688
35,11080.483398,36367.906250,47448.347656
40,13007.953125,34629.121094,47637.078125
45,13134.405273,34654.820312,47789.144531
50,12121.033203,35734.070312,47855.054688
55,10788.985352,37061.070312,47850.117188
60,9714.875000,38089.183594,47804.085938
65,9167.740234,38581.585938,47749.355469
70,9087.715820,38629.089844,47716.753906
75,9195.566406,38517.996094,47713.460938
80,9272.477539,38447.707031,47720.253906
85,9311.626953,38407.734375,47719.343750
90,9397.916992,38313.777344,47711.738281
95,9551.400391,38157.082031,47708.492188
100,9691.883789,38023.507812,47715.339844
105,9734.755859,37992.890625,47727.644531
110,9651.933594,38087.695312,47739.699219
115,9467.228516,38279.308594,47746.562500
120,9252.830078,38491.542969,47744.371094
125,9096.380859,38638.722656,47735.070312
130,9038.212891,38687.578125,47725.816406
135,9052.490234,38669.269531,47721.664062
140,9089.256836,38631.527344,47720.781250
145,9131.447266,38589.867188,47721.476562
150,9152.924805,38571.753906,47724.699219
155,9154.108398,38569.929688,47723.980469
160,9185.841797,38533.343750,47719.269531
165,9253.730469,38464.378906,47718.187500
170,9313.010742,38407.343750,47720.234375
175,9367.050781,38350.902344,47718.011719
180,9456.859375,38258.828125,47715.765625
185,9519.098633,38205.722656,47724.804688
190,9479.403320,38253.507812,47732.933594
195,9408.883789,38320.636719,47729.605469
200,9415.703125,38302.781250,47718.425781
205,9518.582031,38194.445312,47713.039062
210,9625.948242,38092.667969,47718.652344
215,9654.517578,38071.593750,47726.031250
220,9647.425781,38078.406250,47725.878906
225,9632.483398,38097.542969,47730.054688
230,9547.075195,38191.140625,47738.218750
235,9413.472656,38323.945312,47737.468750
240,9330.575195,38398.121094,47728.601562
245,9329.996094,38392.531250,47722.464844
250,9374.876953,38343.847656,47718.714844
255,9467.184570,38246.125000,47713.281250
260,9600.165039,38112.500000,47712.546875
265,9701.400391,38018.648438,47719.910156
270,9715.023438,38014.589844,47729.664062
275,9630.911133,38108.273438,47739.042969
280,9474.329102,38266.945312,47741.367188
285,9359.694336,38370.476562,47730.152344
290,9356.723633,38366.605469,47723.332031
295,9363.454102,38363.402344,47726.886719
300,9351.625977,38373.875000,47725.476562
305,9356.185547,38369.988281,47726.093750
310,9318.726562,38414.265625,47732.992188
315,9231.660156,38501.574219,47733.222656
320,9192.720703,38530.828125,47723.441406
325,9256.904297,38457.070312,47713.960938
330,9416.520508,38287.742188,47704.265625
335,9660.625977,38039.679688,47700.320312
340,9862.590820,37853.292969,47715.835938
345,9870.049805,37863.906250,47733.988281
350,9757.833008,37981.675781,47739.535156
355,9614.789062,38125.027344,47739.910156
360,9484.124023,38253.132812,47737.281250
365,9383.487305,38349.367188,47732.968750
370,9342.676758,38383.417969,47726.214844
375,9344.179688,38381.375000,47725.632812
380,9339.311523,38387.019531,47726.226562
385,9327.170898,38399.699219,47726.898438
390,9325.784180,38397.726562,47723.425781
395,9354.412109,38368.535156,47722.910156
400,9365.996094,38359.796875,47725.722656
405,9356.262695,38371.335938,47727.691406
410,9318.390625,38412.621094,47730.988281
415,9271.546875,38455.542969,47727.078125
420,9300.730469,38417.574219,47718.292969
425,9368.101562,38354.476562,47722.539062
430,9358.549805,38370.855469,47729.535156
435,9345.628906,38377.230469,47722.855469
440,9401.545898,38316.824219,47718.300781
445,9474.458008,38244.714844,47719.101562
450,9533.005859,38189.285156,47722.246094
455,9527.638672,38204.152344,47731.792969
460,9453.936523,38278.976562,47732.808594
465,9397.119141,38334.066406,47731.113281
470,9334.916992,38397.378906,47732.308594
475,9274.367188,38456.609375,47730.976562
480,9230.064453,38498.707031,47728.777344
485,9212.206055,38513.359375,47725.558594
490,9219.290039,38506.300781,47725.632812
495,9190.100586,38541.445312,47731.515625
500,9134.605469,38593.488281,47728.027344
505,9153.797852,38565.042969,47718.898438
510,9220.827148,38500.191406,47720.996094
515,9222.560547,38508.402344,47730.917969
520,9130.837891,38606.835938,47737.734375
525,9008.921875,38726.824219,47735.746094
530,8954.024414,38769.425781,47723.445312
535,9036.603516,38674.578125,47711.210938
540,9188.973633,38522.082031,47711.085938
545,9308.540039,38408.214844,47716.675781
550,9373.073242,38349.160156,47722.277344
555,9370.073242,38360.902344,47731.054688
560,9277.039062,38461.617188,47738.683594
565,9136.252930,38602.425781,47738.761719
570,9053.111328,38671.863281,47725.046875
575,9155.238281,38548.617188,47703.800781
580,9418.790039,38279.679688,47698.390625
585,9635.440430,38076.363281,47711.675781
590,9722.975586,37999.898438,47722.906250
595,9696.988281,38038.484375,47735.531250
600,9562.002930,38178.855469,47740.832031
605,9439.687500,38293.304688,47732.972656
610,9400.601562,38326.371094,47726.976562
615,9379.393555,38349.730469,47729.285156
620,9340.676758,38387.535156,47728.144531
625,9341.718750,38380.625000,47722.277344
630,9379.799805,38342.855469,47722.710938
635,9390.681641,38336.246094,47726.851562
640,9361.831055,38368.015625,47729.824219
645,9332.879883,38393.273438,47725.988281
650,9339.486328,38385.898438,47725.292969
655,9318.224609,38411.890625,47730.089844
660,9276.175781,38451.187500,47727.375000
665,9293.776367,38425.855469,47719.609375
670,9369.386719,38347.562500,47716.988281
675,9459.831055,38256.644531,47716.480469
680,9527.797852,38194.738281,47722.382812
685,9550.730469,38171.609375,47722.304688
690,9598.800781,38121.300781,47720.132812
695,9632.764648,38092.925781,47725.718750
700,9617.069336,38110.582031,47727.703125
705,9600.115234,38127.714844,47727.804688
710,9562.291016,38169.191406,47731.613281
715,9492.580078,38240.980469,47733.535156
720,9410.572266,38323.808594,47734.417969
725,9317.756836,38416.839844,47734.539062
730,9244.184570,38485.867188,47730.062500
735,9225.292969,38498.664062,47723.878906
740,9272.501953,38444.781250,47717.445312
745,9357.342773,38361.750000,47719.078125
750,9375.334961,38354.511719,47729.851562
755,9305.404297,38428.226562,47733.589844
760,9236.381836,38495.003906,47731.335938
765,9186.160156,38541.886719,47728.070312
770,9209.948242,38506.101562,47716.031250
775,9362.356445,38342.597656,47704.941406
780,9570.766602,38137.257812,47707.890625
785,9684.927734,38037.300781,47722.261719
790,9679.583008,38050.558594,47730.089844
795,9606.489258,38130.167969,47736.671875
800,9486.742188,38249.593750,47736.300781
805,9421.915039,38304.761719,47726.589844
810,9454.148438,38263.597656,47717.656250
815,9551.829102,38164.511719,47716.273438
820,9599.966797,38127.636719,47727.546875
825,9537.522461,38198.546875,47736.039062
830,9418.729492,38319.890625,47738.503906
835,9296.586914,38439.378906,47735.960938
840,9219.981445,38509.464844,47729.460938
845,9208.005859,38516.289062,47724.316406
850,9219.931641,38505.515625,47725.433594
855,9207.044922,38520.816406,47727.804688
860,9187.886719,38538.769531,47726.679688
865,9190.792969,38532.039062,47722.792969
870,9249.319336,38467.167969,47716.417969
875,9345.151367,38372.652344,47717.722656
880,9380.858398,38348.171875,47729.031250
885,9285.605469,38455.519531,47741.105469
890,9143.899414,38591.238281,47735.152344
895,9105.510742,38617.964844,47723.449219
900,9165.478516,38550.699219,47716.171875
905,9262.332031,38454.808594,47717.171875
910,9326.723633,38394.636719,47721.375000
915,9367.500000,38352.824219,47720.285156
920,9449.685547,38264.527344,47714.187500
925,9562.517578,38153.933594,47716.472656
930,9629.149414,38092.218750,47721.320312
935,9661.611328,38062.410156,47724.101562
940,9662.752930,38063.957031,47726.757812
945,9666.871094,38055.800781,47722.710938
950,9704.982422,38017.750000,47722.761719
955,9701.052734,38029.257812,47730.378906
960,9626.368164,38109.078125,47735.375000
965,9520.759766,38215.187500,47735.960938
970,9436.936523,38293.558594,47730.515625
975,9418.888672,38305.449219,47724.375000
980,9435.432617,38289.367188,47724.773438
985,9425.627930,38303.070312,47728.757812
990,9391.187500,38337.210938,47728.324219
995,9386.691406,38336.066406,47722.734375
1000,9442.514648,38275.308594,47717.839844
1005,9518.121094,38201.496094,47719.671875
1010,9546.125977,38182.058594,47728.250000
1015,9472.388672,38265.421875,47737.835938
1020,9339.104492,38399.691406,47738.707031
1025,9230.770508,38501.843750,47732.636719
1030,9194.939453,38530.339844,47725.257812
1035,9217.967773,38503.554688,47721.449219
1040,9274.618164,38442.824219,47717.507812
1045,9381.549805,38331.484375,47713.085938
1050,9491.270508,38227.937500,47719.214844
1055,9509.870117,38218.425781,47728.312500
1060,9477.532227,38252.156250,47729.695312
1065,9430.824219,38299.957031,47730.804688
1070,9388.894531,38340.222656,47729.121094
1075,9358.566406,38369.250000,47727.800781
1080,9366.894531,38355.324219,47722.234375
1085,9369.471680,38365.531250,47735.007812
1090,9176.316406,38579.695312,47756.062500
1095,8863.726562,38888.824219,47752.636719
1100,8694.326172,39035.207031,47729.605469
1105,8745.248047,38966.347656,47711.585938
1110,8924.129883,38780.796875,47704.992188
1115,9125.158203,38582.925781,47708.167969
1120,9261.526367,38455.832031,47717.375000
1125,9298.823242,38428.507812,47727.367188
1130,9253.464844,38478.269531,47731.761719
1135,9222.885742,38499.371094,47722.128906
1140,9340.472656,38364.316406,47704.722656
1145,9571.470703,38134.230469,47705.753906
1150,9682.357422,38045.042969,47727.378906
1155,9583.916992,38159.132812,47743.039062
1160,9406.833984,38335.851562,47742.683594
1165,9249.295898,38490.554688,47739.769531
1170,9162.684570,38561.925781,47724.554688
1175,9279.326172,38424.375000,47703.652344
1180,9508.403320,38198.878906,47707.335938
1185,9626.397461,38095.257812,47721.597656
1190,9614.711914,38120.027344,47734.660156
1195,9465.160156,38281.437500,47746.628906
1200,9259.930664,38483.257812,47743.148438
1205,9141.695312,38588.234375,47729.933594
1210,9153.707031,38565.585938,47719.261719
1215,9222.699219,38497.726562,47720.515625
1220,9232.237305,38498.136719,47730.375000
1225,9149.416992,38587.347656,47736.765625
1230,9033.842773,38703.019531,47736.890625
1235,8936.054688,38796.101562,47732.089844
1240,8910.670898,38812.582031,47723.335938
1245,8958.279297,38760.214844,47718.523438
1250,9046.752930,38667.125000,47713.917969
1255,9188.795898,38521.066406,47709.804688
1260,9327.816406,38387.605469,47715.277344
1265,9410.497070,38308.578125,47719.035156
1270,9478.541992,38241.585938,47720.058594
1275,9495.119141,38236.804688,47731.925781
1280,9360.963867,38385.972656,47746.968750
1285,9133.954102,38613.453125,47747.410156
1290,8958.501953,38778.125000,47736.687500
1295,8919.056641,38801.710938,47720.777344
1300,9006.642578,38708.804688,47715.441406
1305,9073.615234,38650.699219,47724.371094
1310,9051.091797,38679.531250,47730.613281
1315,9013.768555,38712.574219,47726.355469
1320,9037.594727,38682.617188,47720.179688
1325,9109.853516,38606.398438,47716.210938
1330,9216.313477,38498.726562,47714.988281
1335,9287.206055,38437.566406,47724.750000
1340,9245.861328,38488.394531,47734.351562
1345,9151.368164,38583.515625,47735.046875
1350,9069.069336,38663.003906,47732.128906
1355,9029.210938,38696.949219,47726.062500
1360,9059.016602,38659.808594,47718.800781
1365,9144.358398,38571.742188,47716.070312
1370,9240.210938,38475.789062,47715.957031
1375,9341.740234,38373.113281,47714.894531
1380,9452.786133,38262.589844,47715.414062
1385,9519.304688,38206.269531,47725.671875
1390,9467.471680,38267.660156,47735.210938
1395,9379.290039,38353.242188,47732.539062
1400,9339.059570,38388.015625,47727.117188
1405,9331.962891,38395.410156,47727.296875
1410,9306.502930,38422.339844,47728.847656
1415,9292.367188,38432.730469,47725.085938
1420,9294.255859,38435.316406,47729.558594
1425,9205.067383,38533.136719,47738.234375
1430,9092.529297,38641.695312,47734.222656
1435,9035.540039,38691.734375,47727.218750
1440,9056.938477,38661.421875,47718.484375
1445,9165.183594,38545.804688,47710.890625
1450,9327.921875,38380.367188,47708.324219
1455,9497.726562,38212.175781,47709.859375
1460,9636.830078,38078.847656,47715.761719
1465,9692.707031,38033.210938,47725.843750
1470,9662.342773,38069.468750,47731.828125
1475,9600.092773,38131.273438,47731.421875
1480,9549.763672,38182.050781,47731.773438
1485,9462.377930,38275.316406,47737.683594
1490,9340.195312,38396.410156,47736.582031
1495,9264.202148,38465.156250,47729.414062
1500,9235.905273,38494.855469,47730.816406
1505,9153.143555,38582.644531,47735.855469
1510,9080.296875,38648.011719,47728.324219
1515,9100.069336,38618.984375,47719.164062
1520,9181.025391,38536.792969,47717.820312
1525,9235.395508,38489.460938,47724.906250
1530,9197.649414,38537.046875,47734.644531
1535,9088.058594,38649.308594,47737.300781
1540,8991.871094,38739.585938,47731.480469
1545,8979.461914,38740.878906,47720.316406
1550,9081.390625,38629.933594,47711.250000
1555,9225.523438,38487.000000,47712.558594
1560,9355.200195,38356.425781,47711.734375
1565,9520.567383,38187.121094,47707.753906
1570,9675.966797,38040.492188,47716.476562
1575,9703.432617,38027.539062,47730.945312
1580,9609.846680,38129.648438,47739.476562
1585,9469.615234,38269.085938,47738.773438
1590,9377.770508,38352.675781,47730.515625
1595,9366.529297,38358.339844,47724.789062
1600,9368.045898,38360.664062,47728.730469
1605,9329.561523,38400.093750,47729.613281
1610,9320.778320,38403.125000,47723.945312
1615,9347.479492,38377.382812,47724.898438
1620,9344.928711,38382.085938,47726.937500
1625,9345.297852,38380.296875,47725.546875
1630,9325.808594,38406.296875,47732.199219
1635,9231.576172,38506.222656,47737.851562
1640,9122.119141,38612.386719,47734.511719
1645,9068.891602,38657.976562,47726.835938
1650,9096.576172,38623.359375,47719.863281
1655,9148.993164,38574.667969,47723.648438
1660,9136.684570,38593.957031,47730.652344
1665,9084.140625,38646.292969,47730.296875
1670,9059.604492,38665.484375,47725.015625
1675,9103.405273,38613.753906,47717.105469
1680,9204.277344,38512.160156,47716.507812
1685,9261.836914,38463.222656,47725.121094
1690,9242.784180,38487.019531,47729.808594
1695,9197.083008,38534.699219,47731.726562
1700,9126.317383,38606.972656,47733.250000
1705,9079.928711,38645.976562,47725.929688
1710,9113.416992,38605.746094,47719.207031
1715,9189.545898,38527.742188,47717.347656
1720,9272.252930,38446.136719,47718.457031
1725,9326.731445,38396.148438,47722.886719
1730,9339.734375,38385.570312,47725.250000
1735,9358.919922,38362.445312,47721.332031
1740,9421.899414,38296.859375,47718.796875
1745,9475.648438,38248.367188,47724.117188
1750,9462.372070,38268.574219,47731.019531
1755,9399.929688,38332.992188,47732.953125
1760,9342.070312,38389.015625,47731.046875
1765,9294.968750,38435.769531,47730.675781
1770,9259.270508,38469.652344,47728.800781
1775,9223.229492,38508.339844,47731.523438
1780,9150.741211,38583.410156,47734.101562
1785,9092.836914,38633.937500,47726.839844
1790,9133.250977,38584.328125,47717.566406
1795,9207.386719,38515.289062,47722.597656
1800,9192.339844,38540.304688,47732.644531
1805,9104.098633,38631.972656,47735.949219
1810,9018.586914,38713.015625,47731.703125
1815,8988.891602,38737.039062,47725.890625
1820,9002.046875,38722.804688,47724.894531
1825,8991.917969,38736.703125,47728.582031
1830,8994.856445,38725.242188,47720.140625
1835,9098.854492,38613.007812,47711.769531
1840,9228.166016,38488.589844,47716.714844
1845,9267.445312,38460.789062,47728.191406
1850,9219.296875,38512.976562,47732.324219
1855,9155.022461,38577.699219,47732.796875
1860,9096.059570,38634.808594,47730.867188
1865,9048.594727,38682.070312,47730.648438
1870,9013.158203,38714.453125,47727.609375
1875,9005.880859,38720.273438,47726.105469
1880,8996.188477,38731.300781,47727.507812
1885,8994.319336,38729.089844,47723.417969
1890,9036.730469,38683.500000,47720.179688
1895,9101.123047,38618.046875,47719.230469
1900,9156.879883,38565.730469,47722.578125
1905,9173.394531,38553.031250,47726.335938
1910,9150.152344,38581.398438,47731.632812
1915,9055.120117,38684.699219,47739.804688
1920,8919.671875,38817.234375,47736.804688
1925,8846.255859,38882.910156,47729.140625
1930,8850.813477,38869.351562,47720.074219
1935,8954.013672,38756.402344,47710.554688
1940,9134.143555,38571.589844,47705.769531
1945,9333.377930,38374.218750,47707.625000
1950,9485.937500,38229.300781,47715.261719
1955,9556.545898,38166.128906,47722.761719
1960,9567.170898,38161.054688,47728.273438
1965,9502.538086,38235.019531,47737.488281
1970,9368.978516,38371.261719,47740.195312
1975,9234.791016,38503.113281,47737.941406
1980,9122.416016,38614.371094,47736.722656
1985,9019.736328,38715.121094,47734.859375
1990,8938.330078,38794.175781,47732.472656
1995,8894.059570,38832.859375,47726.914062
2000,8908.758789,38812.562500,47721.320312
2005,8977.767578,38738.679688,47716.437500
2010,9073.285156,38644.488281,47717.808594
2015,9138.086914,38582.691406,47720.820312
2020,9188.342773,38533.570312,47721.878906
2025,9209.316406,38516.914062,47726.214844
2030,9204.995117,38520.062500,47724.972656
2035,9243.655273,38474.914062,47718.609375
2040,9333.351562,38383.421875,47716.843750
2045,9403.271484,38320.023438,47723.320312
2050,9416.244141,38307.015625,47723.296875
2055,9483.932617,38232.933594,47716.964844
2060,9550.749023,38174.792969,47725.531250
2065,9495.680664,38242.402344,47738.105469
2070,9360.766602,38379.257812,47740.023438
2075,9224.252930,38515.578125,47739.785156
2080,9082.012695,38658.316406,47740.382812
2085,8945.422852,38792.660156,47737.957031
2090,8848.730469,38883.546875,47732.105469
2095,8814.286133,38911.507812,47725.710938
2100,8849.375977,38868.320312,47717.636719
2105,8979.225586,38728.351562,47707.625000
2110,9177.736328,38530.781250,47708.507812
2115,9302.344727,38416.011719,47718.394531
2120,9373.739258,38346.949219,47720.558594
2125,9408.253906,38316.410156,47724.632812
2130,9432.218750,38289.839844,47722.089844
2135,9479.167969,38243.351562,47722.496094
2140,9476.756836,38255.386719,47732.214844
2145,9372.774414,38367.511719,47740.242188
2150,9230.181641,38508.914062,47739.007812
2155,9123.078125,38610.574219,47733.718750
2160,9074.219727,38653.570312,47727.785156
2165,9066.141602,38660.804688,47727.007812
2170,9041.166016,38688.839844,47730.003906
2175,9001.954102,38726.687500,47728.675781
2180,8991.754883,38732.843750,47724.593750
2185,9019.256836,38702.554688,47721.863281
2190,9065.095703,38655.144531,47720.175781
2195,9133.900391,38584.042969,47718.078125
2200,9213.183594,38505.695312,47718.996094
2205,9254.329102,38471.906250,47726.371094
2210,9235.802734,38491.800781,47727.644531
2215,9235.888672,38489.070312,47724.929688
2220,9231.028320,38498.207031,47729.285156
2225,9175.396484,38558.402344,47733.851562
2230,9082.223633,38654.527344,47736.753906
2235,8977.513672,38756.445312,47734.000000
2240,8940.972656,38783.042969,47724.035156
2245,8987.268555,38732.097656,47719.261719
2250,9043.818359,38678.941406,47722.730469
2255,9042.866211,38686.382812,47729.160156
2260,9015.511719,38710.062500,47725.503906
2265,9064.592773,38651.687500,47716.242188
2270,9174.458984,38540.363281,47714.777344
2275,9281.087891,38434.664062,47715.785156
2280,9386.219727,38329.562500,47715.894531
2285,9469.559570,38251.632812,47721.304688
2290,9487.248047,38241.121094,47728.316406
2295,9442.755859,38289.312500,47732.136719
2300,9390.740234,38338.695312,47729.484375
2305,9384.789062,38338.722656,47723.480469
2310,9415.942383,38308.171875,47724.105469
2315,9410.644531,38318.843750,47729.480469
2320,9369.833984,38359.476562,47729.406250
2325,9353.333984,38372.667969,47725.980469
2330,9354.821289,38371.425781,47726.226562
2335,9341.248047,38387.941406,47729.238281
2340,9296.727539,38434.683594,47731.578125
